Angstrom,magn,wavelength
1000,15.393,100
1010,15.037876,101
1020,14.698609,102
1030,14.374266,103
1040,14.064038,104
1050,13.767213,105
1060,13.483156,106
1070,13.21129,107
1080,12.951088,108
1090,12.702058,109
1100,12.463739,110
1110,12.235695,111
1120,12.017508,112
1130,11.808777,113
1140,11.609116,114
1150,11.41815,115
1160,11.235517,116
1170,11.060864,117
1180,10.893849,118
1190,10.73414,119
1200,10.581415,120
1210,10.435363,121
1220,10.295681,122
1230,10.162078,123
1240,10.034273,124
1250,9.911996,125
1260,9.794988,126
1270,9.683,127
1280,9.575794,128
1290,9.473144,129
1300,9.374833,130
1310,9.280657,131
1320,9.190421,132
1330,9.103942,133
1340,9.021046,134
1350,8.941571,135
1360,8.865365,136
1370,8.792283,137
1380,8.722193,138
1390,8.65497,139
1400,8.590499,140
1410,8.528674,141
1420,8.469397,142
1430,8.412576,143
1440,8.35813,144
1450,8.305983,145
1460,8.256068,146
1470,8.208322,147
1480,8.162691,148
1490,8.119125,149
1500,8.077582,150
1510,8.038022,151
1520,8.000413,152
1530,7.964726,153
1540,7.930939,154
1550,7.899031,155
1560,7.868987,156
1570,7.840794,157
1580,7.814445,158
1590,7.789933,159
1600,7.767257,160
1610,7.746416,161
1620,7.727413,162
1630,7.710252,163
1640,7.694941,164
1650,7.681488,165
1660,7.669904,166
1670,7.660201,167
1680,7.652392,168
1690,7.646491,169
1700,7.642514,170
1710,7.640477,171
1720,7.640398,172
1730,7.642294,173
1740,7.646183,174
1750,7.652086,175
1760,7.660019,176
1770,7.670004,177
1780,7.682059,178
1790,7.696205,179
1800,7.71246,180
1810,7.730844,181
1820,7.751377,182
1830,7.774077,183
1840,7.798965,184
1850,7.826057,185
1860,7.855373,186
1870,7.88693,187
1880,7.920746,188
1890,7.956837,189
1900,7.995221,190
1910,8.035912,191
1920,8.078927,192
1930,8.124279,193
1940,8.171983,194
1950,8.222053,195
1960,8.274501,196
1970,8.32934,197
1980,8.386581,198
1990,8.446235,199
2000,8.557813,200
2010,8.63346,201
2020,8.709857,202
2030,8.787885,203
2040,8.86758,204
2050,8.948356,205
2060,9.029186,206
2070,9.108762,207
2080,9.185617,208
2090,9.258233,209
2100,9.32512,210
2110,9.384882,211
2120,9.436267,212
2130,9.478202,213
2140,9.509816,214
2150,9.530455,215
2160,9.539688,216
2170,9.537307,217
2180,9.523316,218
2190,9.497926,219
2200,9.461532,220
2210,9.4147,221
2220,9.358144,222
2230,9.292702,223
2240,9.219313,224
2250,9.138993,225
2260,9.052809,226
2270,8.961851,227
2280,8.867212,228
2290,8.769959,229
2300,8.671112,230
2310,8.571618,231
2320,8.472329,232
2330,8.373985,233
2340,8.277188,234
2350,8.182386,235
2360,8.089856,236
2370,7.999686,237
2380,7.911762,238
2390,7.81518,239
2400,7.728934,240
2410,7.646637,241
2420,7.568049,242
2430,7.492949,243
2440,7.421128,244
2450,7.35239,245
2460,7.286551,246
2470,7.22344,247
2480,7.162895,248
2490,7.104766,249
2500,7.048911,250
2510,6.995198,251
2520,6.943503,252
2530,6.893708,253
2540,6.845706,254
2550,6.799393,255
2560,6.754674,256
2570,6.71146,257
2580,6.669666,258
2590,6.629213,259
2600,6.590027,260
2610,6.552039,261
2620,6.515185,262
2630,6.479403,263
2640,6.444636,264
2650,6.410831,265
2660,6.377938,266
2670,6.34591,267
2680,6.314702,268
2690,6.284274,269
2700,6.254586,270
2710,6.225603,271
2720,6.197289,272
2730,6.169614,273
2740,6.142547,274
2750,6.11606,275
2760,6.090127,276
2770,6.064723,277
2780,6.039823,278
2790,6.015408,279
2800,5.991455,280
2810,5.967946,281
2820,5.944862,282
2830,5.922186,283
2840,5.899902,284
2850,5.877996,285
2860,5.856452,286
2870,5.835257,287
2880,5.814398,288
2890,5.793864,289
2900,5.773643,290
2910,5.753725,291
2920,5.734099,292
2930,5.714755,293
2940,5.695686,294
2950,5.676881,295
2960,5.658334,296
2970,5.640036,297
2980,5.621979,298
2990,5.604158,299
3000,5.586565,300
3010,5.569195,301
3020,5.55204,302
3030,5.535095,303
3040,5.518355,304
3050,5.501815,305
3060,5.485469,306
3070,5.469313,307
3080,5.453342,308
3090,5.437552,309
3100,5.421937,310
3110,5.406495,311
3120,5.391221,312
3130,5.376111,313
3140,5.361162,314
3150,5.346369,315
3160,5.33173,316
3170,5.317241,317
3180,5.302899,318
3190,5.288701,319
3200,5.274643,320
3210,5.260723,321
3220,5.246937,322
3230,5.233282,323
3240,5.219757,324
3250,5.206357,325
3260,5.193081,326
3270,5.179926,327
3280,5.166889,328
3290,5.153968,329
3300,5.141159,330
3310,5.128462,331
3320,5.115873,332
3330,5.103389,333
3340,5.09101,334
3350,5.078731,335
3360,5.066552,336
3370,5.05447,337
3380,5.042483,338
3390,5.030588,339
3400,5.018784,340
3410,5.007068,341
3420,4.995439,342
3430,4.983894,343
3440,4.972431,344
3450,4.961049,345
3460,4.949745,346
3470,4.938518,347
3480,4.927366,348
3490,4.916286,349
3500,4.905277,350
3510,4.894337,351
3520,4.883465,352
3530,4.872658,353
3540,4.861915,354
3550,4.851234,355
3560,4.840614,356
3570,4.830052,357
3580,4.819547,358
3590,4.809098,359
3600,4.798702,360
3610,4.788358,361
3620,4.778065,362
3630,4.767821,363
3640,4.757625,364
3650,4.747474,365
3660,4.737368,366
3670,4.727306,367
3680,4.717284,368
3690,4.707303,369
3700,4.69736,370
3710,4.687455,371
3720,4.677586,372
3730,4.667751,373
3740,4.65795,374
3750,4.648181,375
3760,4.638442,376
3770,4.628733,377
3780,4.619052,378
3790,4.609398,379
3800,4.599769,380
3810,4.590165,381
3820,4.580585,382
3830,4.571027,383
3840,4.56149,384
3850,4.551973,385
3860,4.542474,386
3870,4.532994,387
3880,4.52353,388
3890,4.514082,389
3900,4.504649,390
3910,4.49523,391
3920,4.485823,392
3930,4.476428,393
3940,4.467044,394
3950,4.45767,395
3960,4.448305,396
3970,4.438948,397
3980,4.429598,398
3990,4.420254,399
4000,4.396126,400
4010,4.388326,401
4020,4.38052,402
4030,4.372704,403
4040,4.364872,404
4050,4.357019,405
4060,4.349143,406
4070,4.34124,407
4080,4.333305,408
4090,4.325337,409
4100,4.317332,410
4110,4.309288,411
4120,4.301203,412
4130,4.293075,413
4140,4.284903,414
4150,4.276685,415
4160,4.26842,416
4170,4.260106,417
4180,4.251744,418
4190,4.243333,419
4200,4.234872,420
4210,4.22636,421
4220,4.217799,422
4230,4.209186,423
4240,4.200524,424
4250,4.191812,425
4260,4.18305,426
4270,4.174238,427
4280,4.165378,428
4290,4.15647,429
4300,4.147514,430
4310,4.138512,431
4320,4.129464,432
4330,4.120371,433
4340,4.111234,434
4350,4.102054,435
4360,4.092832,436
4370,4.08357,437
4380,4.074268,438
4390,4.064927,439
4400,4.055549,440
4410,4.046135,441
4420,4.036686,442
4430,4.027204,443
4440,4.01769,444
4450,4.008144,445
4460,3.998569,446
4470,3.988966,447
4480,3.979336,448
4490,3.96968,449
4500,3.96,450
4510,3.950297,451
4520,3.940573,452
4530,3.930828,453
4540,3.921065,454
4550,3.911283,455
4560,3.901486,456
4570,3.891674,457
4580,3.881848,458
4590,3.872009,459
4600,3.86216,460
4610,3.852301,461
4620,3.842433,462
4630,3.832558,463
4640,3.822677,464
4650,3.812791,465
4660,3.802901,466
4670,3.793009,467
4680,3.783115,468
4690,3.773221,469
4700,3.763327,470
4710,3.753436,471
4720,3.743548,472
4730,3.733663,473
4740,3.723784,474
4750,3.713911,475
4760,3.704045,476
4770,3.694187,477
4780,3.684338,478
4790,3.674498,479
4800,3.66467,480
4810,3.654853,481
4820,3.645049,482
4830,3.635258,483
4840,3.625482,484
4850,3.61572,485
4860,3.605974,486
4870,3.596245,487
4880,3.586533,488
4890,3.57684,489
4900,3.567164,490
4910,3.557508,491
4920,3.547873,492
4930,3.538258,493
4940,3.528664,494
4950,3.519092,495
4960,3.509542,496
4970,3.500016,497
4980,3.490513,498
4990,3.481034,499
5000,3.47158,500
5010,3.462151,501
5020,3.452747,502
5030,3.44337,503
5040,3.434018,504
5050,3.424694,505
5060,3.415397,506
5070,3.406128,507
5080,3.396886,508
5090,3.387673,509
5100,3.378489,510
5110,3.369333,511
5120,3.360207,512
5130,3.35111,513
5140,3.342044,514
5150,3.333007,515
5160,3.324001,516
5170,3.315026,517
5180,3.306081,518
5190,3.297167,519
5200,3.288285,520
5210,3.279434,521
5220,3.270615,522
5230,3.261827,523
5240,3.253072,524
5250,3.244348,525
5260,3.235657,526
5270,3.226998,527
5280,3.218371,528
5290,3.209777,529
5300,3.201215,530
5310,3.192686,531
5320,3.18419,532
5330,3.175726,533
5340,3.167296,534
5350,3.158898,535
5360,3.150533,536
5370,3.142201,537
5380,3.133902,538
5390,3.125636,539
5400,3.117402,540
5410,3.109202,541
5420,3.101034,542
5430,3.0929,543
5440,3.084798,544
5450,3.076729,545
5460,3.068693,546
5470,3.060689,547
5480,3.052718,548
5490,3.04478,549
5500,3.036874,550
5510,3.029,551
5520,3.021159,552
5530,3.013351,553
5540,3.005574,554
5550,2.997829,555
5560,2.990117,556
5570,2.982436,557
5580,2.974787,558
5590,2.96717,559
5600,2.959584,560
5610,2.95203,561
5620,2.944507,562
5630,2.937015,563
5640,2.929554,564
5650,2.922124,565
5660,2.914725,566
5670,2.907356,567
5680,2.900018,568
5690,2.892711,569
5700,2.885433,570
5710,2.878186,571
5720,2.870968,572
5730,2.863781,573
5740,2.856622,574
5750,2.849494,575
5760,2.842394,576
5770,2.835324,577
5780,2.828282,578
5790,2.82127,579
5800,2.814285,580
5810,2.80733,581
5820,2.800402,582
5830,2.793503,583
5840,2.786632,584
5850,2.779788,585
5860,2.772972,586
5870,2.766184,587
5880,2.759422,588
5890,2.752688,589
5900,2.745981,590
5910,2.7393,591
5920,2.732646,592
5930,2.726018,593
5940,2.719417,594
5950,2.712841,595
5960,2.706291,596
5970,2.699767,597
5980,2.693268,598
5990,2.686795,599
6000,2.680346,600
6010,2.673923,601
6020,2.667524,602
6030,2.66115,603
6040,2.654801,604
6050,2.648475,605
6060,2.642174,606
6070,2.635896,607
6080,2.629642,608
6090,2.623412,609
6100,2.617205,610
6110,2.611021,611
6120,2.60486,612
6130,2.598722,613
6140,2.592606,614
6150,2.586513,615
6160,2.580443,616
6170,2.574394,617
6180,2.568368,618
6190,2.562363,619
6200,2.55638,620
6210,2.550418,621
6220,2.544478,622
6230,2.538558,623
6240,2.53266,624
6250,2.526782,625
6260,2.520926,626
6270,2.515089,627
6280,2.509273,628
6290,2.503477,629
6300,2.497701,630
6310,2.491945,631
6320,2.486209,632
6330,2.480492,633
6340,2.474794,634
6350,2.469116,635
6360,2.463457,636
6370,2.457817,637
6380,2.452196,638
6390,2.446593,639
6400,2.441008,640
6410,2.435443,641
6420,2.429895,642
6430,2.424365,643
6440,2.418853,644
6450,2.41336,645
6460,2.407883,646
6470,2.402425,647
6480,2.396983,648
6490,2.391559,649
6500,2.386152,650
6510,2.380762,651
6520,2.375389,652
6530,2.370032,653
6540,2.364692,654
6550,2.359369,655
6560,2.354062,656
6570,2.348771,657
6580,2.343497,658
6590,2.338238,659
6600,2.332995,660
6610,2.327768,661
6620,2.322556,662
6630,2.31736,663
6640,2.31218,664
6650,2.307015,665
6660,2.301865,666
6670,2.29673,667
6680,2.291609,668
6690,2.286504,669
6700,2.281414,670
6710,2.276338,671
6720,2.271277,672
6730,2.26623,673
6740,2.261197,674
6750,2.256179,675
6760,2.251175,676
6770,2.246185,677
6780,2.241209,678
6790,2.236247,679
6800,2.231298,680
6810,2.226364,681
6820,2.221442,682
6830,2.216535,683
6840,2.21164,684
6850,2.206759,685
6860,2.201892,686
6870,2.197037,687
6880,2.192196,688
6890,2.187367,689
6900,2.182551,690
6910,2.177749,691
6920,2.172959,692
6930,2.168181,693
6940,2.163416,694
6950,2.158664,695
6960,2.153924,696
6970,2.149197,697
6980,2.144482,698
6990,2.139779,699
7000,2.135088,700
7010,2.13041,701
7020,2.125743,702
7030,2.121089,703
7040,2.116446,704
7050,2.111815,705
7060,2.107196,706
7070,2.102589,707
7080,2.097993,708
7090,2.093409,709
7100,2.088837,710
7110,2.084276,711
7120,2.079726,712
7130,2.075188,713
7140,2.070661,714
7150,2.066145,715
7160,2.061641,716
7170,2.057147,717
7180,2.052665,718
7190,2.048194,719
7200,2.043734,720
7210,2.039285,721
7220,2.034847,722
7230,2.03042,723
7240,2.026003,724
7250,2.021598,725
7260,2.017203,726
7270,2.012819,727
7280,2.008445,728
7290,2.004082,729
7300,1.99973,730
7310,1.995388,731
7320,1.991057,732
7330,1.986736,733
7340,1.982426,734
7350,1.978126,735
7360,1.973836,736
7370,1.969557,737
7380,1.965288,738
7390,1.961029,739
7400,1.956781,740
7410,1.952543,741
7420,1.948314,742
7430,1.944097,743
7440,1.939889,744
7450,1.935691,745
7460,1.931503,746
7470,1.927326,747
7480,1.923158,748
7490,1.919001,749
7500,1.914853,750
7510,1.910715,751
7520,1.906587,752
7530,1.90247,753
7540,1.898362,754
7550,1.894263,755
7560,1.890175,756
7570,1.886097,757
7580,1.882028,758
7590,1.877969,759
7600,1.87392,760
7610,1.86988,761
7620,1.86585,762
7630,1.86183,763
7640,1.85782,764
7650,1.853819,765
7660,1.849828,766
7670,1.845847,767
7680,1.841875,768
7690,1.837913,769
7700,1.83396,770
7710,1.830017,771
7720,1.826084,772
7730,1.82216,773
7740,1.818246,774
7750,1.814341,775
7760,1.810446,776
7770,1.80656,777
7780,1.802684,778
7790,1.798817,779
7800,1.79496,780
7810,1.791112,781
7820,1.787274,782
7830,1.783445,783
7840,1.779626,784
7850,1.775816,785
7860,1.772016,786
7870,1.768225,787
7880,1.764444,788
7890,1.760672,789
7900,1.756909,790
7910,1.753156,791
7920,1.749412,792
7930,1.745678,793
7940,1.741953,794
7950,1.738238,795
7960,1.734532,796
7970,1.730835,797
7980,1.727148,798
7990,1.72347,799
8000,1.719802,800
8010,1.716143,801
8020,1.712493,802
8030,1.708853,803
8040,1.705222,804
8050,1.701601,805
8060,1.697989,806
8070,1.694387,807
8080,1.690794,808
8090,1.68721,809
8100,1.683636,810
8110,1.680071,811
8120,1.676515,812
8130,1.672969,813
8140,1.669433,814
8150,1.665906,815
8160,1.662388,816
8170,1.65888,817
8180,1.655381,818
8190,1.651892,819
8200,1.648412,820
8210,1.644941,821
8220,1.64148,822
8230,1.638029,823
8240,1.634586,824
8250,1.631154,825
8260,1.627731,826
8270,1.624317,827
8280,1.620913,828
8290,1.617518,829
8300,1.614133,830
8310,1.610757,831
8320,1.607391,832
8330,1.604034,833
8340,1.600687,834
8350,1.597349,835
8360,1.594021,836
8370,1.590702,837
8380,1.587393,838
8390,1.584094,839
8400,1.580804,840
8410,1.577523,841
8420,1.574252,842
8430,1.570991,843
8440,1.56774,844
8450,1.564497,845
8460,1.561265,846
8470,1.558042,847
8480,1.554829,848
8490,1.551625,849
8500,1.548431,850
8510,1.545247,851
8520,1.542072,852
8530,1.538907,853
8540,1.535751,854
8550,1.532606,855
8560,1.52947,856
8570,1.526343,857
8580,1.523227,858
8590,1.52012,859
8600,1.517022,860
8610,1.513935,861
8620,1.510857,862
8630,1.507789,863
8640,1.50473,864
8650,1.501682,865
8660,1.498643,866
8670,1.495614,867
8680,1.492595,868
8690,1.489585,869
8700,1.486586,870
8710,1.483596,871
8720,1.480616,872
8730,1.477645,873
8740,1.474685,874
8750,1.471734,875
8760,1.468794,876
8770,1.465863,877
8780,1.462942,878
8790,1.460031,879
8800,1.45713,880
8810,1.454238,881
8820,1.451357,882
8830,1.448485,883
8840,1.445624,884
8850,1.443469,885
8860,1.440786,886
8870,1.438108,887
8880,1.435434,888
8890,1.432764,889
8900,1.4301,890
8910,1.42744,891
8920,1.424784,892
8930,1.422134,893
8940,1.419488,894
8950,1.416847,895
8960,1.414211,896
8970,1.41158,897
8980,1.408953,898
8990,1.406332,899
9000,1.403715,900
9010,1.401104,901
9020,1.398498,902
9030,1.395897,903
9040,1.393301,904
9050,1.39071,905
9060,1.388124,906
9070,1.385543,907
9080,1.382968,908
9090,1.380398,909
9100,1.377833,910
9110,1.375273,911
9120,1.372719,912
9130,1.37017,913
9140,1.367627,914
9150,1.365089,915
9160,1.362556,916
9170,1.360029,917
9180,1.357507,918
9190,1.35499,919
9200,1.35248,920
9210,1.349974,921
9220,1.347474,922
9230,1.34498,923
9240,1.342491,924
9250,1.340008,925
9260,1.33753,926
9270,1.335058,927
9280,1.332591,928
9290,1.330131,929
9300,1.327675,930
9310,1.325226,931
9320,1.322782,932
9330,1.320343,933
9340,1.31791,934
9350,1.315483,935
9360,1.313062,936
9370,1.310646,937
9380,1.308236,938
9390,1.305832,939
9400,1.303434,940
9410,1.301041,941
9420,1.298654,942
9430,1.296272,943
9440,1.293897,944
9450,1.291527,945
9460,1.289162,946
9470,1.286804,947
9480,1.284451,948
9490,1.282104,949
9500,1.279763,950
9510,1.277428,951
9520,1.275098,952
9530,1.272774,953
9540,1.270456,954
9550,1.268143,955
9560,1.265837,956
9570,1.263536,957
9580,1.261241,958
9590,1.258951,959
9600,1.256668,960
9610,1.25439,961
9620,1.252118,962
9630,1.249851,963
9640,1.247591,964
9650,1.245336,965
9660,1.243087,966
9670,1.240843,967
9680,1.238606,968
9690,1.236374,969
9700,1.234148,970
9710,1.231927,971
9720,1.229712,972
9730,1.227503,973
9740,1.2253,974
9750,1.223103,975
9760,1.220911,976
9770,1.218725,977
9780,1.216544,978
9790,1.214369,979
9800,1.2122,980
9810,1.210037,981
9820,1.207879,982
9830,1.205727,983
9840,1.203581,984
9850,1.20144,985
9860,1.199305,986
9870,1.197175,987
9880,1.195051,988
9890,1.192933,989
9900,1.19082,990
9910,1.188713,991
9920,1.186612,992
9930,1.184516,993
9940,1.182426,994
9950,1.180341,995
9960,1.178262,996
9970,1.176189,997
9980,1.17412,998
9990,1.172058,999
10000,1.170001,1000
10010,1.16795,1001
10020,1.165904,1002
10030,1.163863,1003
10040,1.161828,1004
10050,1.159799,1005
10060,1.157775,1006
10070,1.155756,1007
10080,1.153743,1008
10090,1.151735,1009
10100,1.149733,1010
10110,1.147736,1011
10120,1.145745,1012
10130,1.143759,1013
10140,1.141778,1014
10150,1.139803,1015
10160,1.137833,1016
10170,1.135868,1017
10180,1.133909,1018
10190,1.131955,1019
10200,1.130006,1020
10210,1.128063,1021
10220,1.126125,1022
10230,1.124192,1023
10240,1.122265,1024
10250,1.120342,1025
10260,1.118425,1026
10270,1.116514,1027
10280,1.114607,1028
10290,1.112706,1029
10300,1.11081,1030
10310,1.108919,1031
10320,1.107033,1032
10330,1.105152,1033
10340,1.103277,1034
10350,1.101407,1035
10360,1.099541,1036
10370,1.097681,1037
10380,1.095826,1038
10390,1.093976,1039
10400,1.092131,1040
10410,1.090292,1041
10420,1.088457,1042
10430,1.086627,1043
10440,1.084802,1044
10450,1.082983,1045
10460,1.081168,1046
10470,1.079358,1047
10480,1.077553,1048
10490,1.075754,1049
10500,1.073959,1050
10510,1.072169,1051
10520,1.070384,1052
10530,1.068604,1053
10540,1.066828,1054
10550,1.065058,1055
10560,1.063293,1056
10570,1.061532,1057
10580,1.059776,1058
10590,1.058025,1059
10600,1.056279,1060
10610,1.054537,1061
10620,1.052801,1062
10630,1.051069,1063
10640,1.049342,1064
10650,1.04762,1065
10660,1.045902,1066
10670,1.044189,1067
10680,1.042481,1068
10690,1.040777,1069
10700,1.039078,1070
10710,1.037384,1071
10720,1.035695,1072
10730,1.03401,1073
10740,1.03233,1074
10750,1.030654,1075
10760,1.028983,1076
10770,1.027316,1077
10780,1.025655,1078
10790,1.023997,1079
10800,1.022344,1080
10810,1.020696,1081
10820,1.019052,1082
10830,1.017413,1083
10840,1.015778,1084
10850,1.014148,1085
10860,1.012522,1086
10870,1.010901,1087
10880,1.009284,1088
10890,1.007671,1089
10900,1.006063,1090
10910,1.004459,1091
10920,1.00286,1092
10930,1.001265,1093
10940,0.999674,1094
10950,0.998088,1095
10960,0.996506,1096
10970,0.994928,1097
10980,0.993355,1098
10990,0.991786,1099
11000,0.990221,1100
11010,0.98866,1101
11020,0.987104,1102
11030,0.985552,1103
11040,0.984004,1104
11050,0.982461,1105
11060,0.980921,1106
11070,0.979386,1107
11080,0.977855,1108
11090,0.976328,1109
11100,0.974805,1110
11110,0.973287,1111
11120,0.971772,1112
11130,0.970262,1113
11140,0.968755,1114
11150,0.967253,1115
11160,0.965755,1116
11170,0.964261,1117
11180,0.962771,1118
11190,0.961285,1119
11200,0.959803,1120
11210,0.958324,1121
11220,0.95685,1122
11230,0.95538,1123
11240,0.953914,1124
11250,0.952452,1125
11260,0.950994,1126
11270,0.94954,1127
11280,0.948089,1128
11290,0.946643,1129
11300,0.9452,1130
11310,0.943761,1131
11320,0.942326,1132
11330,0.940895,1133
11340,0.939468,1134
11350,0.938045,1135
11360,0.936625,1136
11370,0.93521,1137
11380,0.933798,1138
11390,0.932389,1139
11400,0.930985,1140
